['rho', 'ne(*1e13cm^-3)', 'Te(keV)', 'Pressure(kPa)', 'currrent density(MA/m^2)']
    0.0              5.52638              16.43631            291.02979               0.80304  
  0.005    5.521441403709379    16.434044809156816     290.729914636952    0.8094582312987401  
   0.01    5.516502807418757    16.431779618313627     290.430039273904    0.8158764625974798  
  0.015    5.511564211128136     16.42951442747044     290.130163910856    0.8222946938962199  
   0.02    5.506625614837514    16.427249236627254     289.830288547808    0.8287129251949596  
  0.025   5.5016870185468925     16.42498404578407      289.53041318476    0.8351311564936996  
   0.03    5.496748422256272    16.422718854940882     289.230537821712    0.8415493877924395  
  0.035   5.4918098259656505    16.420453664097696   288.93066245866396    0.8479676190911793  
   0.04    5.486871229675029     16.41818847325451   288.63078709561603    0.8543858503899193  
  0.045     5.48124186228482     16.41515423317684     288.281322543036      0.85911338028169  
   0.05   5.4735901037805785    16.409868424759082   287.78667424388436    0.8588909933283915  
  0.055    5.465938345276337    16.404582616341322    287.2920259447327    0.8586686063750927  
   0.06    5.458286586772094    16.399296807923566    286.7973776455811    0.8584462194217939  
  0.065   5.4506348282678525    16.394010999505806   286.30272934642943    0.8582238324684951  
   0.07    5.441161257940664    16.386874407678885    285.6807275664921    0.8579440628272251  
  0.075   5.4289343818499125     16.37694072530541    284.8662563623036    0.8575775706806282  
   0.08    5.416707505759161    16.367007042931935   284.05178515811514    0.8572110785340313  
  0.085    5.403716308016877    16.355787203829923   283.17642225089253    0.8564040019474197  
   0.09    5.390055970464134    16.343441374553716   282.24775055339177    0.8552112074001947  
  0.095    5.376370706610505    16.331000404023037    281.3163090930973    0.8540047468408837  
    0.1    5.362345949454138    16.317263620734117   280.34714378750107    0.8526121567953237  
  0.105    5.348321192297774      16.3035268374452   279.37797848190496    0.8512195667497635  
   0.11    5.333195549809737    16.287950810810813   278.32206659771686    0.8494848219338473  
  0.115    5.317686719679969    16.271734594594598   277.23596063615963    0.8476309825348816  
   0.12   5.3014698554114394    16.254115377418668    276.0917279013396    0.8455849202636615  
  0.125    5.284937854560919     16.23587170316819    274.9216237125239    0.8434533021475653  
   0.13    5.267883801578354    16.216304550169113   273.70460593686585    0.8410984126268319  
  0.135    5.250678801776925    16.196362055468846    272.4741726966023    0.8386821347100492  
   0.14    5.232711458758555    16.174678780165685   271.17913727818467    0.8360227518309522  
  0.145   5.2144995379746835     16.15238255063291   269.86269092405064    0.8332792658227848  
   0.15    5.195872955696203    16.129047107594936    268.5099440886076    0.8303931898734177  
  0.155    5.176787012195122    16.104473638653236    267.1166534835631    0.8273417165959702  
   0.16    5.157428979394275    16.079147906237036   265.69906313926157    0.8241892200248928  
  0.165   5.1376875881620805    16.052740770294566    264.2469126759784    0.8208909210344352  
   0.17     5.11753295487209     16.02511301810865    262.7577336993388    0.8174423828686403  
  0.175    5.097097000148875    15.996622847997617    261.2431103334822    0.8138857600119099  
   0.18     5.07636877883728    15.967217243924946   259.70192315595204    0.8102147646877884  
  0.185    5.055267579206398    15.936595896647187   258.12660786834823    0.8064005536757921  
   0.19    5.033864416098875    15.904934482649342   256.52353161147204    0.8024622104262398  
  0.195    5.012196629726207    15.872330840938723   254.89587830508475    0.7984100651890482  
    0.2    4.990267581130812    15.838761763131481    253.2436924991636    0.7942451354968216  
  0.205    4.968084250942749    15.804214449777168   251.56749795337674    0.7899727391155296  
   0.21   4.9456296743229355    15.768612804250942   249.86661519712032    0.7855846691806649  
  0.215    4.922923170817257    15.731937990178885   248.14117770256053    0.7810752578042792  
   0.22    4.899997082437276    15.694295250896058   246.39491287096774    0.7764577491039427  
  0.225    4.876864344247302    15.655692374245472   244.62849202121822     0.771743411377355  
   0.23    4.853531583069177     15.61612781838523   242.84288697930262    0.7669248592205855  
  0.235   4.8300073618233625    15.575609099715102    241.0388563209877    0.7620054966761635  
   0.24   4.8063044521739124    15.534141773913042   239.21740069565215    0.7569886956521739  
  0.245    4.782436487229862    15.491727748526522   237.37961500982317      0.75187478978389  
   0.25    4.758413409181637    15.448377712574851    235.5262949221557    0.7466689141716567  
  0.255    4.734247868719611    15.404108460291734   233.65856689627228    0.7413722042139383  
   0.26    4.709948115107913    15.358931294964027    231.7774866330935     0.735985654676259  
  0.265    4.685526082517191    15.312854938528861    229.8839379912482     0.730514600958533  
   0.27    4.660997798184505    15.265899917669412   227.97922331855605    0.7249618218281613  
  0.275    4.636367567336468    15.218087064985038   226.06435299059427    0.7193286874732792  
   0.28    4.611654774989182    15.169422442665512   224.14021702509734    0.7136149783643444  
  0.285    4.586867332020136     15.11992148391333   222.20780656161088    0.7078246684175968  
   0.29     4.56200461266047    15.069601549358122   220.26788589198762    0.7019541876936697  
  0.295    4.537103041825096    15.018494649966453   218.32190088794454    0.6960223283381793  
    0.3    4.512141077133729    14.966535490643542    216.3699918986764    0.6900080419899589  
  0.305    4.487147488479263    14.913799239631338   214.41373096774194    0.6839363824884793  
   0.31   4.4621359321245935    14.860317261738727   212.45404026499304    0.6777999581589959  
  0.315    4.437112776735459    14.806119681050657   210.49215480300188    0.6716014821763602  
   0.32    4.412084938505204    14.751211655629138   208.52850087984865    0.6653411731315043  
  0.325    4.387061134954696    14.695621821649976   206.56416551263712     0.659021330472103  
   0.33    4.362057910411622    14.639299263922517   204.59991472154962     0.652650196125908  
  0.335    4.337085763414634    14.582312965853657   202.63687089756095     0.646228463414634  
   0.34    4.312142856791943    14.524700913780398   200.67561191353474      0.63975486366986  
  0.345    4.287251602373887    14.466487359050447   198.71704881305638     0.633233234421365  
   0.35    4.262410430753819    14.407665947908841   196.76222529676937    0.6266752892561985  
  0.355   4.2376408896169355    14.348222084173386   194.81216948336692    0.6200596219758064  
   0.36    4.212940800810949    14.288244827673594    192.8670522402433    0.6134147693867209  
  0.365     4.18831397399949     14.22775005607953   190.92763942136122    0.6067322508284476  
   0.37    4.163786048428645    14.166713838227714   188.99513488923233    0.6000069912416279  
  0.375     4.13936184360435    14.105164971517349   187.07052552045573    0.5932507457276024  
   0.38    4.115031696591204     14.04315288056206   185.15345169398904    0.5864683372365338  
  0.385    4.090821724862168    13.980721457075347   183.24517025465997    0.5796530375426621  
   0.39    4.066743955696203    13.917814082278483   181.34761841772152     0.572819240506329  
  0.395    4.042787764830509    13.854514830508474   179.45946669491525    0.5659548199152542  
    0.4    4.018964171762829    13.790853597447487   177.58147259771337     0.559071978197288  
  0.405    3.995304634342352     13.72678365657648    175.7165160380391    0.5521669863380658  
   0.41    3.971790120967743     13.66240116935484   173.86295552419358    0.5452435887096775  
  0.415   3.9484172124492556     13.59771645466847   172.02119459810552    0.5383132286874154  
   0.42   3.9252428420195438    13.532707662866448   170.19425078175894    0.5313596091205212  
  0.425    3.902221347672202    13.467450609855705   168.38029961884018    0.5244067982575551  
   0.43   3.8793836473165393     13.40194099123768   166.58005110076672    0.5174344852135816  
  0.435   3.8567341476804833    13.336191896788362   164.79566206697777    0.5104645264891573  
   0.44   3.8342671849201984    13.270262559163456    163.0255230875069    0.5034901183269125  
  0.445   3.8120140503179427     13.20414938070224   161.27179270389826    0.4965123721316007  
   0.45   3.7899615734072025    13.137869063711912   159.53409866481996   0.48953158448753464  
  0.455     3.76810251457119     13.07147745212323   157.81186109075767   0.48255119900083254  
   0.46    3.746476668523677    13.004945582172702   156.10808652367686    0.4755804345403899  
  0.465    3.725060558035714    12.938354944196426   154.42079279017858    0.4686116852678571  
   0.47   3.7038676574307305     12.87168996361601   152.75101833473272   0.46165431010355445  
  0.475    3.682910622022975    12.804993401513029   151.10000705239565    0.4547102073409919  
   0.48   3.6621704152637484    12.738277833894502    149.4657603030303   0.44777415263748593  
  0.485   3.6416913494517855    12.671561658701151   147.85203603036268   0.44085206072533034  
   0.49   3.6214417056009007    12.604873630734591    146.2558890543203    0.4339474359696032  
  0.495     3.60143114994363     12.53823746335964   144.67890427282975     0.427060214205186  
    0.5   3.5816904286520024     12.47167667794698   143.12197408347433    0.4201874506486182  
  0.505   3.5621734913914764    12.405205585661868   141.58304104995767     0.413338089189952  
   0.51    3.542947672973736     12.33886206721265   140.06623523863314   0.40651500988421346  
  0.515    3.523951349901157     12.27263975148263   138.56762964134424    0.3997173651510872  
   0.52    3.505235388308387    12.206591488280147   137.08992636825752    0.3929415362891838  
  0.525     3.48678615819209    12.140728508474574   135.63258952542373    0.3861977288135593  
   0.53   3.4685879023150763     12.07505262281197   134.19452255223038   0.37947410502540935  
  0.535    3.450687092859159    12.009621574936496    132.7788217358171   0.37279326277166247  
   0.54    3.433030039503386     11.94440551918736    131.3818317776524   0.36614236455981947  
  0.545   3.4156711552550005    11.879465663567201   130.00704325443786   0.35951806706114386  
   0.55   3.3985806195437904    11.814818856660096   128.65258479583215     0.352933801745987  
  0.555   3.3817600562271575    11.750468861400055   127.31846294068035    0.3463895136350857  
   0.56   3.3652411235955055     11.68644933988764   126.00645796348314   0.33987445224719104  
  0.565   3.3489816269284716    11.622757433380086   124.71386361851334    0.3334054838709678  
   0.57   3.3330199832073895     11.55945305345648   123.44386559473836   0.32698096837391555  
  0.575    3.317338560246016    11.496514467430806    122.1939155912776   0.32059676544590443  
   0.58     3.30193758361204     11.43396697045708   120.96470271181718   0.31425574414715723  
  0.585    3.286838330550919    11.371866535893158   119.75769734557599    0.3079572370617697  
   0.59   3.2719937555555556    11.310165569444443   118.57003378333332   0.30169874999999996  
  0.595   3.2574662994741215    11.248964123996679   117.40494466924994    0.2955038472183781  
    0.6    3.243218290527479    11.188211408450705   116.26012675504006    0.2893450676608672  
  0.605     3.22924398239824      11.1279197909791   115.13516302530253    0.2832319801980198  
   0.61      3.2155848298573    11.068191251372118    114.0329926564215    0.2771802744237102  
  0.615    3.202192315904736     11.00894417465097   112.95004851355051    0.2711732658089242  
   0.62   3.1890918659765735    10.950246243530374   111.88811999455191   0.26522054753473173  
  0.625   3.1762871032608695    10.892110760869565    110.8473821521739   0.25932851630434783  
   0.63   3.1637491547006236    10.834509059875375   109.82573976700083   0.25348308317529133  
  0.635    3.151513406948559    10.777532844061405   108.82568540263938    0.2476947778077026  
   0.64   3.1395630647327426    10.721152562449637   107.84599784850927   0.24196476228847702  
  0.645   3.1278781156316913    10.665353715203425   106.88520181477514   0.23628457708779435  
   0.65   3.1164951542553188    10.610220997340424   105.94585948670212    0.2306725292553191  
  0.655    3.105389899284389    10.555720214683273   105.02625085078185   0.22511481049562676  
   0.66   3.0945552350765975    10.501839001584784   104.12519304807182    0.2196063285789751  
  0.665    3.084010602883355    10.448674207077325   103.24529760681521   0.21417416251638266  
   0.67    3.073744828937059     10.39618945416558   102.38486360668581   0.20878751893444764  
  0.675   3.0637454200260077    10.344352179453836   101.54276200780234    0.2034676749024707  
   0.68    3.054023886023723    10.293242449716347   100.72038471376997   0.19820974213512116  
  0.685     3.04458677452491    10.242898130457114     99.9182216589625   0.19301577812018486  
   0.69    3.035409657464213    10.193239938650308    99.13403085633948   0.18788051124744384  
  0.695   3.0264913511450384    10.144283793893129    98.36785464122138   0.18281455725190845  
    0.7       3.017859765625    10.096150468750002    97.62210593750001        0.177799609375  
  0.705   3.0094887888665998    10.048782086258779    96.89466222166502   0.17286676780341032  
   0.71     3.00137122754491    10.002149416167665    96.18480372754492   0.16798630239520956  
  0.715   2.9935085111662536     9.956269143920595    95.49256279156329   0.16316146401985115  
   0.72    2.985923883161512     9.911257491408936    94.82015367697593     0.158417147766323  
  0.725    2.978591005613864     9.867037078350013    94.16532317305345   0.15373469123749084  
   0.73   2.9715034093666586     9.823594974520748    93.52761204076683   0.14911249939335117  
  0.735   2.9646542006269594     9.780964106583074    92.90707003134797   0.14456040752351101  
   0.74   2.9580585353655633     9.739156399142653    92.30400014527268   0.14006383424624907  
  0.745    2.951719204921912     9.698245321817323    91.71949086370091   0.13565001419782302  
   0.75   2.9456178044193697     9.658147134461682    91.15147598260461   0.13131071697226138  
  0.755    2.939745547513425     9.618867375671257    90.59981495680597   0.12702409059070743  
   0.76    2.934100653685675     9.580422336578582    90.06440108484006   0.12281358831710712  
  0.765   2.9286861803957662     9.542802825586747    89.54505289461574   0.11868137597791072  
   0.77   2.9234951110607432     9.506045244786943    89.04195253173162   0.11461564369900268  
  0.775   2.9185301551607825     9.470151983359568    88.55525789745896   0.11066000899482799  
   0.78    2.913776666666667     9.435060562248996    88.08330943775101   0.10677622489959841  
  0.785   2.9092166194690265     9.400729026548671    87.62548578761061    0.1029888495575221  
   0.79   2.9048458245614035     9.367138491228069    87.18119428070176   0.09932996491228066  
  0.795   2.9006466231789516     9.334224042183083    86.74934796042618   0.09578891063274622  
    0.8   2.8966094485135714     9.301912744506676     86.3286835760448    0.0924101895734597  
  0.805   2.8927044366197183     9.270108491250534    85.91756777848911   0.08922966922748611  
   0.81     2.88890933417882     9.238655637285987    85.51369603043754   0.08626654407102091  
  0.815   2.8851847090832976     9.207349803264963     85.1141170364169   0.08360893679363753  
   0.82    2.881485352112676     9.175945037282519    84.71504888980945    0.0813086743993372  
  0.825   2.8777493442622952     9.144081967213115    84.31142032786886   0.07948409836065577  
   0.83   2.8738961370085123       9.1112984515606    83.89660969598704   0.07826971625456021  
  0.835    2.869819503006012     9.076969150300602    83.46197027254509   0.07782955911823648  
   0.84   2.8653913980198022      9.04031220990099    82.99650901782178   0.07839390495049504  
  0.845    2.860424920759147     9.000288383877912    82.48587243005282   0.08024389551946781  
   0.85   2.8547122735174812     8.955580028974309    81.91223036121306   0.08371954800077268  
  0.855   2.8479679870377437     8.904524620663363    81.25307559664508    0.0892603659931376  
   0.86   2.8398635915757806      8.84504913125235    80.48070638209853     0.097351154569387  
  0.865   2.8299690619206523      8.77460325546904    79.56181996662959   0.10856988876529482  
   0.87   2.8177888020452886     8.690175756026296    78.45764411979548   0.12350425858290723  
  0.875   2.8027428227256386     8.588248087019059     77.1242028191298   0.14273816972312126  
   0.88    2.784180118521139      8.46487388466301    75.51395818680344   0.16673329913320373  
  0.885   2.7614028360285165     8.315850683359415    73.57883439575726    0.1957995218222918  
   0.89   2.7336978121263877     8.136964061485909    71.27407754227157   0.22977672587532003  
  0.895    2.700374104540124      7.92429553023957    68.56222568269392   0.26766019936337765  
    0.9   2.6593957162003683     7.667409954766292    65.33724662422514    0.3093841062154467  
  0.905   2.6107535862068962     7.365469270935961    61.62683409852217   0.35401439408866997  
   0.91     2.55452893924783     7.017015207328832   57.459829485695906   0.39772506910961125  
  0.915   2.4909285395728635     6.622844506909544    52.88901098932158    0.4369243059045229  
   0.92    2.420411462293072     6.185789659717964   47.985736241569576   0.46859644083384433  
  0.925   2.3422155702023293     5.701155999386875   42.811088786020804    0.4867524800735747  
   0.93    2.259138230642995     5.186277320602711   37.600840493808704   0.48976521855885424  
  0.935    2.173626596206746    4.6563023237295456    32.49130673085271    0.4802772940495148  
   0.94   2.0867844943820235      4.11806912921349   27.548524775280956   0.45934786516853976  
  0.945    2.001054157303372     3.586741882022479   23.050561292134894    0.4243197752808993  
   0.95   1.9187770983050858     3.076816894915262   18.984449959322095    0.3842111389830515  
  0.955   1.8400084206461589     2.588633775260658    15.28539755567002   0.34117256789805706  
   0.96   1.7689825485905528    2.1484291157163105   12.221315949285636    0.2971192791865107  
  0.965   1.7040559691848909    1.7460452236580528    9.578818051689868    0.2562091600397615  
   0.97   1.6429683937640254    1.3674654387622562    7.199595095075012    0.2172900519664583  
  0.975    1.592850288177631    1.0568359359867747    5.427910909413029   0.18494093185307692  
   0.98   1.5470349114448476    0.7728862682547917   3.8447106317970037    0.1555311765924393  
  0.985   1.5103544350077682    0.5455791734852413    2.661670756084933    0.1323618342827551  
   0.99   1.4785751213795413   0.34862715553323287   1.6605245186673363   0.11189112004018081  
  0.995   1.4544875606897705   0.19931357776661643   0.9448372593336681    0.0956555600200904  
    1.0               1.4304                  0.05              0.22915               0.07942  
